iter	Passed	Remaining
0	9	9916
1	17	8885
2	26	8706
3	33	8364
4	41	8260
5	49	8130
6	56	8052
7	64	7975
8	72	7928
9	79	7848
10	86	7763
11	94	7778
12	102	7791
13	110	7810
14	119	7839
15	127	7834
16	134	7793
17	143	7808
18	150	7746
19	158	7748
20	165	7720
21	174	7756
22	181	7723
23	189	7716
24	197	7695
25	205	7704
26	213	7685
27	221	7685
28	229	7671
29	237	7668
30	244	7641
31	252	7627
32	259	7599
33	266	7565
34	274	7561
35	281	7543
36	290	7556
37	297	7542
38	306	7541
39	313	7520
40	321	7518
41	329	7507
42	337	7500
43	344	7480
44	351	7468
45	359	7454
46	367	7444
47	374	7424
48	381	7402
49	388	7390
50	396	7371
51	404	7365
52	411	7347
53	419	7342
54	426	7320
55	433	7311
56	440	7292
57	448	7286
58	456	7277
59	464	7273
60	471	7260
61	479	7252
62	487	7247
63	494	7230
64	502	7225
65	509	7216
66	518	7220
67	526	7217
68	535	7221
69	543	7218
70	553	7236
71	560	7228
72	569	7232
73	577	7229
74	586	7236
75	596	7256
76	607	7277
77	616	7290
78	625	7286
79	634	7292
80	642	7288
81	651	7293
82	660	7296
83	669	7306
84	677	7292
85	685	7283
86	692	7272
87	700	7262
88	708	7248
89	715	7237
90	723	7225
91	731	7222
92	739	7209
93	746	7195
94	753	7179
95	761	7167
96	769	7158
97	775	7140
98	783	7129
99	790	7115
100	799	7116
101	807	7111
102	816	7113
103	825	7113
104	835	7122
105	844	7119
106	852	7118
107	862	7121
108	870	7117
109	879	7118
110	888	7114
111	897	7114
112	905	7111
113	914	7110
114	923	7107
115	932	7109
116	941	7106
117	949	7100
118	958	7098
119	967	7096
120	976	7092
121	985	7091
122	994	7093
123	1003	7089
124	1012	7086
125	1032	7161
126	1040	7154
127	1049	7152
128	1058	7146
129	1080	7228
130	1088	7220
131	1098	7220
132	1106	7212
133	1115	7208
134	1124	7204
135	1132	7196
136	1142	7194
137	1150	7186
138	1158	7177
139	1166	7167
140	1175	7163
141	1184	7154
142	1192	7146
143	1200	7137
144	1208	7123
145	1215	7107
146	1222	7092
147	1229	7077
148	1236	7062
149	1245	7055
150	1251	7038
151	1259	7027
152	1266	7012
153	1274	6999
154	1281	6984
155	1288	6972
156	1296	6959
157	1302	6943
158	1310	6933
159	1318	6921
160	1326	6914
161	1334	6903
162	1342	6895
163	1350	6883
164	1358	6874
165	1365	6861
166	1373	6849
167	1380	6837
168	1387	6822
169	1395	6810
170	1402	6801
171	1410	6790
172	1417	6775
173	1425	6765
174	1431	6750
175	1438	6736
176	1446	6726
177	1454	6716
178	1461	6703
179	1468	6690
180	1476	6680
181	1483	6668
182	1491	6658
183	1498	6645
184	1506	6638
185	1514	6626
186	1522	6620
187	1530	6608
188	1537	6599
189	1545	6589
190	1553	6579
191	1560	6567
192	1567	6554
193	1575	6543
194	1582	6534
195	1591	6526
196	1598	6515
197	1606	6506
198	1613	6495
199	1622	6488
200	1629	6476
201	1636	6466
202	1644	6455
203	1651	6443
204	1659	6434
205	1665	6421
206	1673	6410
207	1680	6399
208	1688	6390
209	1695	6378
210	1703	6369
211	1710	6357
212	1718	6348
213	1725	6336
214	1732	6326
215	1742	6322
216	1751	6319
217	1765	6332
218	1775	6330
219	1784	6326
220	1791	6316
221	1800	6308
222	1807	6297
223	1816	6291
224	1824	6282
225	1832	6274
226	1839	6265
227	1847	6257
228	1856	6250
229	1864	6243
230	1872	6235
231	1881	6229
232	1889	6221
233	1898	6213
234	1906	6206
235	1914	6197
236	1922	6188
237	1930	6181
238	1939	6175
239	1947	6167
240	1954	6156
241	1962	6147
242	1970	6138
243	1977	6127
244	1985	6119
245	1992	6107
246	2001	6101
247	2008	6090
248	2016	6081
249	2023	6070
250	2030	6060
251	2038	6050
252	2046	6041
253	2053	6030
254	2060	6019
255	2068	6010
256	2076	6003
257	2084	5996
258	2092	5985
259	2100	5979
260	2109	5971
261	2118	5966
262	2126	5959
263	2135	5952
264	2143	5945
265	2152	5938
266	2160	5930
267	2168	5924
268	2177	5918
269	2186	5912
270	2195	5906
271	2203	5898
272	2213	5893
273	2221	5886
274	2230	5880
275	2239	5873
276	2248	5868
277	2256	5860
278	2265	5855
279	2275	5850
280	2283	5842
281	2293	5838
282	2301	5830
283	2310	5825
284	2318	5817
285	2327	5809
286	2335	5801
287	2346	5799
288	2362	5811
289	2373	5811
290	2384	5808
291	2391	5798
292	2398	5788
293	2406	5778
294	2413	5767
295	2420	5756
296	2427	5746
297	2434	5735
298	2442	5726
299	2451	5720
300	2461	5715
301	2468	5706
302	2477	5699
303	2486	5692
304	2495	5686
305	2503	5677
306	2512	5671
307	2520	5662
308	2528	5654
309	2536	5646
310	2545	5639
311	2553	5630
312	2562	5624
313	2571	5617
314	2579	5609
315	2587	5601
316	2595	5592
317	2603	5584
318	2611	5575
319	2619	5566
320	2628	5559
321	2636	5551
322	2644	5542
323	2652	5533
324	2660	5526
325	2669	5518
326	2677	5511
327	2686	5504
328	2694	5496
329	2702	5487
330	2710	5478
331	2718	5469
332	2726	5460
333	2733	5450
334	2741	5442
335	2749	5432
336	2757	5424
337	2764	5414
338	2772	5406
339	2779	5395
340	2787	5386
341	2794	5377
342	2802	5367
343	2809	5357
344	2816	5347
345	2824	5337
346	2830	5327
347	2839	5320
348	2849	5314
349	2860	5313
350	2870	5308
351	2877	5298
352	2885	5289
353	2893	5279
354	2900	5270
355	2908	5261
356	2915	5251
357	2923	5242
358	2930	5232
359	2938	5224
360	2946	5215
361	2954	5206
362	2961	5197
363	2969	5188
364	2976	5178
365	2984	5170
366	2992	5161
367	3000	5153
368	3008	5144
369	3016	5135
370	3023	5126
371	3031	5117
372	3039	5109
373	3047	5100
374	3054	5090
375	3062	5081
376	3069	5073
377	3076	5062
378	3084	5054
379	3091	5044
380	3100	5037
381	3107	5027
382	3115	5019
383	3123	5009
384	3131	5001
385	3139	4993
386	3147	4985
387	3154	4975
388	3162	4967
389	3170	4958
390	3178	4951
391	3186	4941
392	3194	4934
393	3202	4926
394	3211	4919
395	3220	4912
396	3229	4904
397	3237	4896
398	3245	4888
399	3253	4880
400	3262	4872
401	3271	4866
402	3280	4860
403	3288	4851
404	3297	4844
405	3305	4836
406	3316	4831
407	3325	4824
408	3334	4817
409	3342	4810
410	3351	4802
411	3360	4795
412	3368	4787
413	3377	4780
414	3385	4772
415	3394	4765
416	3402	4757
417	3411	4750
418	3420	4742
419	3428	4734
420	3437	4727
421	3446	4720
422	3454	4712
423	3462	4703
424	3469	4694
425	3477	4685
426	3484	4675
427	3491	4666
428	3498	4656
429	3505	4647
430	3512	4637
431	3520	4628
432	3527	4619
433	3534	4609
434	3542	4600
435	3549	4591
436	3556	4582
437	3563	4572
438	3571	4563
439	3578	4555
440	3586	4545
441	3594	4538
442	3601	4528
443	3609	4519
444	3616	4510
445	3624	4501
446	3631	4492
447	3639	4484
448	3646	4474
449	3654	4466
450	3662	4458
451	3671	4451
452	3678	4442
453	3687	4434
454	3695	4426
455	3704	4419
456	3712	4411
457	3721	4404
458	3730	4397
459	3740	4390
460	3748	4382
461	3756	4374
462	3764	4365
463	3772	4358
464	3780	4349
465	3788	4340
466	3795	4332
467	3802	4322
468	3810	4314
469	3817	4304
470	3824	4295
471	3831	4286
472	3839	4277
473	3846	4268
474	3854	4259
475	3860	4250
476	3867	4240
477	3875	4232
478	3882	4222
479	3889	4214
480	3897	4205
481	3904	4196
482	3911	4187
483	3919	4178
484	3926	4169
485	3933	4160
486	3942	4152
487	3950	4145
488	3959	4137
489	3967	4129
490	3975	4121
491	3985	4114
492	3993	4106
493	4001	4098
494	4009	4090
495	4018	4083
496	4027	4075
497	4036	4068
498	4044	4060
499	4053	4053
500	4062	4045
501	4070	4038
502	4078	4030
503	4087	4022
504	4095	4014
505	4105	4007
506	4113	3999
507	4121	3991
508	4130	3984
509	4139	3977
510	4149	3970
511	4157	3963
512	4166	3955
513	4175	3947
514	4184	3940
515	4192	3932
516	4200	3924
517	4208	3915
518	4216	3907
519	4223	3898
520	4232	3890
521	4239	3882
522	4247	3874
523	4254	3865
524	4262	3856
525	4270	3848
526	4277	3839
527	4285	3831
528	4292	3821
529	4300	3813
530	4307	3804
531	4315	3795
532	4321	3786
533	4329	3778
534	4336	3769
535	4343	3760
536	4350	3750
537	4357	3741
538	4364	3733
539	4371	3723
540	4378	3715
541	4386	3706
542	4394	3698
543	4402	3690
544	4411	3682
545	4419	3674
546	4428	3667
547	4436	3659
548	4444	3651
549	4452	3643
550	4461	3635
551	4469	3627
552	4477	3619
553	4486	3611
554	4494	3603
555	4502	3595
556	4510	3587
557	4531	3589
558	4539	3581
559	4548	3573
560	4556	3565
561	4565	3557
562	4573	3549
563	4581	3541
564	4590	3534
565	4598	3525
566	4605	3517
567	4614	3509
568	4622	3501
569	4630	3493
570	4639	3485
571	4648	3478
572	4657	3470
573	4665	3462
574	4673	3454
575	4682	3446
576	4690	3438
577	4698	3430
578	4706	3421
579	4713	3413
580	4721	3404
581	4729	3396
582	4737	3388
583	4745	3380
584	4753	3371
585	4761	3363
586	4768	3355
587	4777	3347
588	4784	3338
589	4792	3330
590	4799	3321
591	4807	3313
592	4815	3305
593	4823	3296
594	4831	3288
595	4839	3280
596	4847	3272
597	4855	3263
598	4862	3255
599	4869	3246
600	4876	3237
601	4883	3228
602	4891	3220
603	4898	3211
604	4907	3203
605	4914	3195
606	4922	3187
607	4929	3178
608	4937	3170
609	4945	3161
610	4952	3152
611	4959	3144
612	4966	3135
613	4974	3127
614	4980	3118
615	4988	3109
616	4995	3100
617	5002	3092
618	5009	3083
619	5016	3074
620	5025	3067
621	5032	3058
622	5040	3050
623	5048	3041
624	5056	3033
625	5063	3025
626	5071	3017
627	5078	3008
628	5086	3000
629	5093	2991
630	5101	2983
631	5108	2974
632	5116	2966
633	5123	2957
634	5130	2949
635	5138	2940
636	5145	2932
637	5152	2923
638	5160	2915
639	5167	2906
640	5174	2898
641	5181	2889
642	5188	2880
643	5195	2872
644	5203	2863
645	5210	2855
646	5218	2847
647	5225	2838
648	5232	2829
649	5239	2821
650	5245	2812
651	5253	2803
652	5260	2795
653	5268	2787
654	5275	2778
655	5282	2769
656	5289	2761
657	5297	2753
658	5304	2744
659	5311	2736
660	5319	2728
661	5326	2719
662	5333	2711
663	5340	2702
664	5347	2693
665	5354	2685
666	5361	2676
667	5369	2668
668	5376	2660
669	5384	2652
670	5392	2643
671	5399	2635
672	5406	2627
673	5413	2618
674	5421	2610
675	5428	2601
676	5435	2593
677	5442	2585
678	5450	2576
679	5457	2568
680	5465	2560
681	5471	2551
682	5478	2542
683	5485	2534
684	5492	2525
685	5500	2517
686	5510	2510
687	5521	2503
688	5535	2498
689	5544	2491
690	5552	2482
691	5559	2474
692	5567	2466
693	5575	2458
694	5583	2450
695	5590	2442
696	5599	2434
697	5607	2426
698	5616	2418
699	5623	2410
700	5632	2402
701	5640	2394
702	5649	2386
703	5657	2378
704	5666	2370
705	5674	2363
706	5683	2355
707	5690	2347
708	5700	2339
709	5708	2331
710	5716	2323
711	5724	2315
712	5732	2307
713	5739	2298
714	5747	2291
715	5755	2282
716	5763	2274
717	5770	2266
718	5778	2258
719	5784	2249
720	5792	2241
721	5799	2233
722	5806	2224
723	5815	2216
724	5822	2208
725	5830	2200
726	5837	2191
727	5845	2183
728	5852	2175
729	5859	2167
730	5866	2158
731	5873	2150
732	5881	2142
733	5889	2134
734	5897	2126
735	5904	2117
736	5912	2109
737	5919	2101
738	5928	2093
739	5936	2085
740	5945	2078
741	5955	2070
742	5963	2062
743	5972	2054
744	5980	2047
745	5989	2039
746	5998	2031
747	6006	2023
748	6015	2015
749	6024	2008
750	6032	2000
751	6041	1992
752	6049	1984
753	6058	1976
754	6067	1968
755	6076	1961
756	6085	1953
757	6094	1945
758	6102	1937
759	6111	1930
760	6120	1922
761	6128	1914
762	6137	1906
763	6145	1898
764	6154	1890
765	6162	1882
766	6170	1874
767	6178	1866
768	6186	1858
769	6194	1850
770	6202	1842
771	6209	1834
772	6218	1825
773	6226	1818
774	6233	1809
775	6241	1801
776	6249	1793
777	6258	1785
778	6267	1778
779	6277	1770
780	6285	1762
781	6293	1754
782	6302	1746
783	6309	1738
784	6317	1730
785	6325	1722
786	6334	1714
787	6341	1706
788	6349	1697
789	6357	1689
790	6366	1682
791	6374	1674
792	6381	1665
793	6390	1657
794	6399	1650
795	6406	1641
796	6413	1633
797	6422	1625
798	6429	1617
799	6436	1609
800	6443	1600
801	6451	1592
802	6457	1584
803	6465	1576
804	6473	1568
805	6481	1560
806	6489	1552
807	6497	1543
808	6505	1535
809	6512	1527
810	6520	1519
811	6527	1511
812	6535	1503
813	6542	1494
814	6549	1486
815	6557	1478
816	6565	1470
817	6572	1462
818	6580	1454
819	6589	1446
820	6597	1438
821	6604	1430
822	6612	1422
823	6619	1413
824	6626	1405
825	6634	1397
826	6642	1389
827	6650	1381
828	6657	1373
829	6664	1365
830	6671	1356
831	6680	1348
832	6690	1341
833	6702	1334
834	6709	1325
835	6718	1317
836	6724	1309
837	6733	1301
838	6740	1293
839	6748	1285
840	6755	1277
841	6763	1269
842	6770	1260
843	6778	1252
844	6785	1244
845	6792	1236
846	6800	1228
847	6807	1220
848	6815	1212
849	6822	1204
850	6830	1195
851	6837	1187
852	6845	1179
853	6852	1171
854	6858	1163
855	6866	1155
856	6873	1146
857	6881	1138
858	6888	1130
859	6896	1122
860	6903	1114
861	6910	1106
862	6918	1098
863	6925	1090
864	6933	1082
865	6940	1073
866	6948	1065
867	6955	1057
868	6963	1049
869	6970	1041
870	6977	1033
871	6985	1025
872	6992	1017
873	6999	1009
874	7007	1001
875	7015	993
876	7022	984
877	7031	977
878	7038	968
879	7047	961
880	7055	952
881	7063	945
882	7071	936
883	7080	929
884	7088	921
885	7096	913
886	7104	905
887	7113	897
888	7120	889
889	7129	881
890	7137	873
891	7145	865
892	7153	857
893	7163	849
894	7171	841
895	7180	833
896	7190	825
897	7199	817
898	7208	809
899	7216	801
900	7224	793
901	7232	785
902	7241	777
903	7249	769
904	7258	761
905	7267	753
906	7292	747
907	7300	739
908	7310	731
909	7319	723
910	7327	715
911	7336	707
912	7345	699
913	7353	691
914	7361	683
915	7370	675
916	7378	667
917	7387	659
918	7396	651
919	7405	643
920	7414	635
921	7423	627
922	7431	619
923	7440	611
924	7448	603
925	7458	596
926	7466	587
927	7476	580
928	7484	572
929	7493	564
930	7502	556
931	7511	548
932	7519	540
933	7527	531
934	7536	523
935	7544	515
936	7553	507
937	7561	499
938	7570	491
939	7578	483
940	7587	475
941	7595	467
942	7604	459
943	7613	451
944	7622	443
945	7630	435
946	7639	427
947	7646	419
948	7653	411
949	7661	403
950	7669	395
951	7677	387
952	7685	379
953	7693	370
954	7701	362
955	7708	354
956	7717	346
957	7725	338
958	7732	330
959	7740	322
960	7748	314
961	7756	306
962	7765	298
963	7773	290
964	7781	282
965	7789	274
966	7796	266
967	7804	258
968	7812	249
969	7820	241
970	7827	233
971	7833	225
972	7841	217
973	7848	209
974	7856	201
975	7864	193
976	7872	185
977	7880	177
978	7888	169
979	7895	161
980	7903	153
981	7909	144
982	7917	136
983	7924	128
984	7931	120
985	7938	112
986	7946	104
987	7954	96
988	7962	88
989	7969	80
990	7986	72
991	7993	64
992	8000	56
993	8008	48
994	8016	40
995	8023	32
996	8030	24
997	8037	16
998	8044	8
999	8051	0
